time,flex sensor,"actuator position, command","actuator position, measured",force
289.297,158.81034482758622,2.857142857142857,23.35697399527187,-22.015655577299412
289.358,159.5689655172414,2.619047619047619,23.35697399527187,-22.015655577299412
289.419,160.3448275862069,2.619047619047619,23.333333333333332,-22.015655577299412
289.48,161.25862068965517,2.380952380952381,23.333333333333332,-22.015655577299412
289.541,161.25862068965517,2.380952380952381,23.333333333333332,-22.015655577299412
289.602,161.5689655172414,2.380952380952381,23.35697399527187,-22.015655577299412
289.663,162.39655172413794,2.380952380952381,23.35697399527187,-22.015655577299412
289.724,161.94827586206895,2.380952380952381,23.35697399527187,-22.015655577299412
289.785,161.25862068965517,2.380952380952381,23.35697399527187,-22.015655577299412
289.846,161.5689655172414,2.380952380952381,23.35697399527187,-22.015655577299412
289.907,159.8793103448276,2.619047619047619,23.35697399527187,-22.015655577299412
289.968,151.0689655172414,3.8095238095238093,23.35697399527187,-22.015655577299412
290.029,147.39655172413794,4.285714285714286,23.35697399527187,-22.015655577299412
290.09,141.5,5.238095238095238,23.35697399527187,-22.015655577299412
290.151,137.89655172413794,5.714285714285714,23.35697399527187,-22.015655577299412
290.212,133.22413793103448,6.190476190476191,23.35697399527187,-22.015655577299412
290.273,126.55172413793103,7.142857142857143,23.35697399527187,-22.015655577299412
290.334,119.43103448275862,8.095238095238095,23.35697399527187,-22.015655577299412
290.395,112.84482758620689,9.047619047619047,23.35697399527187,-22.015655577299412
290.456,104.8103448275862,10.0,23.35697399527187,-22.015655577299412
290.517,96.15517241379311,11.19047619047619,23.35697399527187,-22.015655577299412
290.578,91.08620689655173,11.904761904761905,23.35697399527187,-22.015655577299412
290.639,86.56896551724138,12.380952380952381,23.35697399527187,-22.015655577299412
290.7,82.13793103448276,13.095238095238095,23.35697399527187,-22.015655577299412
290.761,80.75862068965517,13.333333333333334,23.35697399527187,-22.015655577299412
290.822,70.79310344827586,14.523809523809524,23.35697399527187,-22.015655577299412
290.883,65.8103448275862,15.238095238095237,23.35697399527187,-22.015655577299412
290.944,62.20689655172414,15.714285714285714,23.35697399527187,-22.015655577299412
291.005,57.77586206896552,16.19047619047619,23.35697399527187,-22.015655577299412
291.066,54.70689655172414,16.666666666666668,23.35697399527187,-22.015655577299412
291.127,51.79310344827587,17.142857142857142,23.35697399527187,-22.015655577299412
291.188,56.62068965517241,16.428571428571427,23.35697399527187,-22.015655577299412
291.249,46.20689655172413,17.857142857142858,23.35697399527187,-22.015655577299412
291.31,43.29310344827587,18.333333333333332,23.35697399527187,-22.015655577299412
291.371,51.48275862068965,17.142857142857142,23.35697399527187,-22.015655577299412
291.432,40.913793103448285,18.571428571428573,23.333333333333332,-22.015655577299412
291.493,39.77586206896552,18.80952380952381,23.35697399527187,-22.015655577299412
291.554,38.93103448275863,18.80952380952381,23.35697399527187,-22.015655577299412
291.615,48.5,17.61904761904762,23.35697399527187,-22.015655577299412
291.676,39.241379310344826,18.80952380952381,23.35697399527187,-22.015655577299412
291.737,40.913793103448285,18.571428571428573,23.35697399527187,-22.015655577299412
291.798,48.27586206896552,17.61904761904762,23.35697399527187,-22.015655577299412
291.859,38.551724137931046,18.80952380952381,23.35697399527187,-22.015655577299412
291.92,40.4655172413793,18.571428571428573,23.35697399527187,-22.015655577299412
291.981,39.31034482758622,18.80952380952381,23.35697399527187,-22.015655577299412
292.042,42.06896551724137,18.333333333333332,23.35697399527187,-22.015655577299412
292.103,39.5344827586207,18.80952380952381,23.35697399527187,-22.015655577299412
292.164,38.15517241379311,18.80952380952381,23.35697399527187,-22.015655577299412
292.225,39.4655172413793,18.80952380952381,23.35697399527187,-22.015655577299412
292.286,41.37931034482759,18.571428571428573,23.35697399527187,-22.015655577299412
292.347,38.77586206896552,18.80952380952381,23.35697399527187,-22.015655577299412
292.408,37.77586206896552,19.047619047619047,23.35697399527187,-22.015655577299412
292.469,38.31034482758622,18.80952380952381,23.35697399527187,-22.015655577299412
292.53,39.31034482758622,18.80952380952381,23.35697399527187,-22.015655577299412
292.591,38.62068965517241,18.80952380952381,23.35697399527187,-22.015655577299412
292.652,38.4655172413793,18.80952380952381,23.35697399527187,-22.015655577299412
292.713,39.4655172413793,18.80952380952381,23.35697399527187,-22.015655577299412
292.773,38.31034482758622,18.80952380952381,23.35697399527187,-22.015655577299412
292.834,38.0,19.047619047619047,23.35697399527187,-22.015655577299412
292.895,48.18965517241378,17.61904761904762,23.35697399527187,-22.015655577299412
292.956,40.913793103448285,18.571428571428573,23.35697399527187,-22.015655577299412
293.017,38.241379310344826,18.80952380952381,23.35697399527187,-22.015655577299412
293.078,38.4655172413793,18.80952380952381,23.35697399527187,-22.015655577299412
293.139,46.896551724137936,17.857142857142858,23.35697399527187,-22.015655577299412
293.2,38.68965517241378,18.80952380952381,23.35697399527187,-22.015655577299412
293.261,38.15517241379311,18.80952380952381,23.35697399527187,-22.015655577299412
293.322,37.70689655172413,19.047619047619047,23.35697399527187,-22.015655577299412
293.383,41.68965517241378,18.333333333333332,23.35697399527187,-22.015655577299412
293.444,38.15517241379311,18.80952380952381,23.35697399527187,-22.015655577299412
293.505,38.68965517241378,18.80952380952381,23.35697399527187,-22.015655577299412
293.566,37.551724137931046,19.047619047619047,23.35697399527187,-22.015655577299412
293.627,38.15517241379311,18.80952380952381,23.35697399527187,-22.015655577299412
293.688,38.77586206896552,18.80952380952381,23.35697399527187,-22.015655577299412
293.749,47.051724137931046,17.61904761904762,23.35697399527187,-22.015655577299412
293.81,44.51724137931035,18.095238095238095,23.35697399527187,-22.015655577299412
293.871,37.01724137931035,19.047619047619047,23.35697399527187,-22.015655577299412
293.932,47.741379310344826,17.61904761904762,23.35697399527187,-22.015655577299412
293.993,39.4655172413793,18.80952380952381,23.35697399527187,-22.015655577299412
294.054,37.70689655172413,19.047619047619047,23.35697399527187,-22.015655577299412
294.115,46.27586206896552,17.857142857142858,23.35697399527187,-22.015655577299412
294.176,36.01724137931035,19.285714285714285,23.35697399527187,-22.015655577299412
294.237,36.86206896551724,19.047619047619047,23.35697399527187,-22.015655577299412
294.298,46.12068965517241,17.857142857142858,23.35697399527187,-22.015655577299412
294.359,38.62068965517241,18.80952380952381,23.35697399527187,-22.015655577299412
294.42,37.32758620689654,19.047619047619047,23.35697399527187,-22.015655577299412
294.481,36.48275862068965,19.047619047619047,23.35697399527187,-22.015655577299412
294.542,39.68965517241378,18.80952380952381,23.35697399527187,-22.015655577299412
294.603,43.603448275862064,18.095238095238095,23.35697399527187,-22.015655577299412
294.664,48.65517241379311,17.61904761904762,23.35697399527187,-22.015655577299412
294.725,62.13793103448276,15.714285714285714,23.35697399527187,-22.015655577299412
294.786,61.672413793103445,15.714285714285714,23.35697399527187,-22.015655577299412
294.847,68.56896551724138,14.761904761904763,23.35697399527187,-22.015655577299412
294.908,79.06896551724138,13.571428571428571,23.35697399527187,-22.015655577299412
294.969,84.12068965517241,12.857142857142858,23.35697399527187,-22.015655577299412
295.03,94.15517241379311,11.428571428571429,23.35697399527187,-22.015655577299412
295.091,105.41379310344827,10.0,23.35697399527187,-22.015655577299412
295.152,109.55172413793103,9.285714285714286,23.35697399527187,-22.015655577299412
295.213,115.44827586206897,8.571428571428571,23.35697399527187,-22.015655577299412
295.274,123.79310344827587,7.380952380952381,23.35697399527187,-22.015655577299412
295.335,130.24137931034483,6.666666666666667,23.35697399527187,-22.015655577299412
295.396,138.1206896551724,5.476190476190476,23.35697399527187,-22.015655577299412
295.457,143.41379310344828,4.761904761904762,23.35697399527187,-22.015655577299412
295.518,150.68965517241378,3.8095238095238093,23.35697399527187,-22.015655577299412
295.579,153.20689655172413,3.5714285714285716,23.35697399527187,-22.015655577299412
295.64,157.9655172413793,2.857142857142857,23.35697399527187,-22.015655577299412
295.701,161.10344827586206,2.619047619047619,23.333333333333332,-22.015655577299412
295.762,164.24137931034483,2.142857142857143,23.35697399527187,-22.015655577299412
295.823,167.3793103448276,1.6666666666666667,23.35697399527187,-22.015655577299412
295.884,167.31034482758622,1.6666666666666667,23.35697399527187,-22.015655577299412
295.945,167.3793103448276,1.6666666666666667,23.35697399527187,-22.015655577299412
296.006,167.06896551724137,1.6666666666666667,23.35697399527187,-22.015655577299412
296.067,166.68965517241378,1.6666666666666667,23.35697399527187,-22.015655577299412
296.128,167.6206896551724,1.6666666666666667,23.35697399527187,-22.015655577299412
296.189,169.06896551724137,1.4285714285714286,23.35697399527187,-22.015655577299412
296.25,167.3793103448276,1.6666666666666667,23.35697399527187,-22.015655577299412
296.311,169.0,1.4285714285714286,23.35697399527187,-22.015655577299412
296.372,171.36206896551724,1.1904761904761905,23.35697399527187,-22.015655577299412
296.433,169.44827586206895,1.4285714285714286,23.35697399527187,-22.015655577299412
296.494,168.5344827586207,1.4285714285714286,23.35697399527187,-22.015655577299412
296.555,171.13793103448276,1.1904761904761905,23.35697399527187,-22.015655577299412
296.616,166.24137931034483,1.9047619047619047,23.35697399527187,-22.015655577299412
296.676,166.68965517241378,1.6666666666666667,23.35697399527187,-22.015655577299412
296.737,165.93103448275863,1.9047619047619047,23.35697399527187,-22.015655577299412
296.798,166.1551724137931,1.9047619047619047,23.35697399527187,-22.015655577299412
296.859,165.93103448275863,1.9047619047619047,23.35697399527187,-22.015655577299412
296.92,164.70689655172413,2.142857142857143,23.35697399527187,-22.015655577299412
296.981,166.4655172413793,1.9047619047619047,23.35697399527187,-22.015655577299412
297.042,165.08620689655172,1.9047619047619047,23.35697399527187,-22.015655577299412
297.103,164.17241379310346,2.142857142857143,23.35697399527187,-22.015655577299412
297.164,165.1551724137931,1.9047619047619047,23.35697399527187,-22.015655577299412
297.225,163.17241379310346,2.142857142857143,23.35697399527187,-22.015655577299412
297.286,163.70689655172413,2.142857142857143,23.35697399527187,-22.015655577299412
297.347,165.08620689655172,1.9047619047619047,23.35697399527187,-22.015655577299412
297.408,162.70689655172413,2.380952380952381,23.35697399527187,-22.015655577299412
297.469,163.63793103448276,2.142857142857143,23.35697399527187,-22.015655577299412
297.53,162.79310344827587,2.380952380952381,23.35697399527187,-22.015655577299412
297.591,162.48275862068965,2.380952380952381,23.35697399527187,-22.015655577299412
297.652,162.79310344827587,2.380952380952381,23.35697399527187,-22.015655577299412
297.713,162.79310344827587,2.380952380952381,23.35697399527187,-22.015655577299412
297.774,161.32758620689654,2.380952380952381,23.35697399527187,-22.015655577299412
297.835,162.17241379310346,2.380952380952381,23.35697399527187,-22.015655577299412
297.896,160.79310344827587,2.619047619047619,23.35697399527187,-22.015655577299412
297.957,163.77586206896552,2.142857142857143,23.35697399527187,-22.015655577299412
298.018,161.70689655172413,2.380952380952381,23.35697399527187,-22.015655577299412
298.079,162.48275862068965,2.380952380952381,23.35697399527187,-22.015655577299412
298.14,165.6206896551724,1.9047619047619047,23.35697399527187,-22.015655577299412
298.201,162.39655172413794,2.380952380952381,23.35697399527187,-22.015655577299412
298.262,163.55172413793105,2.142857142857143,23.35697399527187,-22.015655577299412
298.323,162.79310344827587,2.380952380952381,23.35697399527187,-22.015655577299412
298.384,163.24137931034483,2.142857142857143,23.35697399527187,-22.015655577299412
298.445,164.08620689655172,2.142857142857143,23.35697399527187,-22.015655577299412
298.506,163.77586206896552,2.142857142857143,23.35697399527187,-22.015655577299412
298.567,164.17241379310346,2.142857142857143,23.35697399527187,-22.015655577299412
298.628,164.32758620689654,2.142857142857143,23.35697399527187,-22.015655577299412
298.689,164.6206896551724,2.142857142857143,23.35697399527187,-22.015655577299412
298.75,163.70689655172413,2.142857142857143,23.35697399527187,-22.015655577299412
298.811,165.77586206896552,1.9047619047619047,23.35697399527187,-22.015655577299412
298.872,165.08620689655172,1.9047619047619047,23.35697399527187,-22.015655577299412
298.933,166.0,1.9047619047619047,23.35697399527187,-22.015655577299412
298.994,165.24137931034483,1.9047619047619047,23.35697399527187,-22.015655577299412
299.055,165.77586206896552,1.9047619047619047,23.35697399527187,-22.015655577299412
299.116,166.4655172413793,1.9047619047619047,23.35697399527187,-22.015655577299412
299.177,166.1551724137931,1.9047619047619047,23.35697399527187,-22.015655577299412
299.24,167.91379310344828,1.6666666666666667,4.633569739952719,-22.015655577299412
299.301,165.77586206896552,1.9047619047619047,4.633569739952719,-22.015655577299412
299.362,166.08620689655172,1.9047619047619047,4.633569739952719,-22.015655577299412
299.519,168.75862068965517,1.4285714285714286,4.633569739952719,5.812133072407045
299.726,169.91379310344828,1.4285714285714286,4.633569739952719,10.303326810176126
299.933,168.06896551724137,1.6666666666666667,3.3569739952718685,10.83170254403131
300.14,169.75862068965517,1.4285714285714286,0.6146572104018908,10.91976516634051
300.347,169.98275862068965,1.4285714285714286,0.591016548463358,11.007827788649706
300.554,169.60344827586206,1.4285714285714286,0.5673758865248217,11.007827788649706
300.76,160.0344827586207,2.619047619047619,0.591016548463358,10.91976516634051
300.966,122.12068965517241,7.619047619047619,2.0094562647754124,10.91976516634051
301.173,87.41379310344827,12.380952380952381,6.90307328605201,11.007827788649706
301.379,67.34482758620689,15.0,11.536643026004729,0.08806262230919765
301.586,49.72413793103448,17.38095238095238,15.555555555555555,0.0
301.792,39.15517241379311,18.80952380952381,17.754137115839242,0.08806262230919765
301.998,36.01724137931035,19.285714285714285,18.72340425531915,0.6164383561643836
302.204,36.17241379310346,19.285714285714285,19.148936170212767,0.6164383561643836
302.41,37.241379310344826,19.047619047619047,19.12529550827423,0.44031311154598823
302.616,50.0344827586207,17.38095238095238,19.12529550827423,0.08806262230919765
302.822,62.51724137931035,15.714285714285714,19.1016548463357,0.08806262230919765
303.028,87.34482758620689,12.380952380952381,16.335697399527188,0.26418786692759294
303.235,113.75862068965517,8.80952380952381,12.174940898345152,0.44031311154598823
303.441,154.51724137931035,3.3333333333333335,7.872340425531915,0.3522504892367906
303.647,174.20689655172413,0.7142857142857143,2.6950354609929086,0.6164383561643836
303.853,175.43103448275863,0.7142857142857143,0.04728132387706907,0.44031311154598823
304.058,176.27586206896552,0.47619047619047616,0.04728132387706907,-0.08806262230919765
304.265,177.25862068965517,0.47619047619047616,0.07092198581560183,0.3522504892367906
304.471,177.0344827586207,0.47619047619047616,0.04728132387706907,0.6164383561643836
304.678,176.81034482758622,0.47619047619047616,0.07092198581560183,0.44031311154598823
304.884,175.81034482758622,0.47619047619047616,0.07092198581560183,0.7045009784735812
305.091,176.9655172413793,0.47619047619047616,0.04728132387706907,0.6164383561643836
305.297,177.18965517241378,0.47619047619047616,0.02364066193853276,0.6164383561643836
305.503,177.79310344827587,0.23809523809523808,0.04728132387706907,0.44031311154598823
305.709,177.8793103448276,0.23809523809523808,0.04728132387706907,0.44031311154598823
305.916,178.79310344827587,0.23809523809523808,0.04728132387706907,0.44031311154598823
306.121,178.48275862068965,0.23809523809523808,0.07092198581560183,0.6164383561643836
306.328,169.29310344827587,1.4285714285714286,0.07092198581560183,0.7045009784735812
306.534,150.3793103448276,4.0476190476190474,0.02364066193853276,0.3522504892367906
306.74,132.22413793103448,6.428571428571429,2.955082742316783,0.5283757338551859
306.946,115.44827586206897,8.571428571428571,6.950354609929079,0.1761252446183953
307.153,97.29310344827586,10.952380952380953,8.01418439716312,0.26418786692759294
307.358,84.74137931034483,12.619047619047619,11.44208037825059,0.44031311154598823
307.565,73.77586206896552,14.047619047619047,12.056737588652481,0.6164383561643836
307.77,68.5,14.761904761904763,14.326241134751772,0.6164383561643836
307.977,53.327586206896555,16.904761904761905,15.224586288416075,0.8806262230919765
308.183,46.43103448275863,17.857142857142858,16.666666666666668,0.5283757338551859
308.389,43.51724137931035,18.095238095238095,17.754137115839242,0.1761252446183953
308.595,39.086206896551715,18.80952380952381,18.203309692671397,0.08806262230919765
308.802,36.551724137931046,19.047619047619047,18.60520094562648,0.6164383561643836
309.008,37.01724137931035,19.047619047619047,18.95981087470449,0.6164383561643836
309.214,36.551724137931046,19.047619047619047,18.95981087470449,0.6164383561643836
309.42,35.86206896551724,19.285714285714285,19.1016548463357,0.6164383561643836
309.627,36.63793103448276,19.047619047619047,19.21985815602837,0.6164383561643836
309.833,36.01724137931035,19.285714285714285,19.243498817966902,0.6164383561643836
310.04,35.17241379310346,19.285714285714285,19.21985815602837,0.26418786692759294
310.246,36.241379310344826,19.285714285714285,19.243498817966902,0.5283757338551859
310.453,36.48275862068965,19.047619047619047,19.243498817966902,0.26418786692759294
310.658,35.63793103448276,19.285714285714285,19.243498817966902,0.26418786692759294
310.865,35.396551724137936,19.285714285714285,19.243498817966902,0.1761252446183953
311.07,35.258620689655174,19.285714285714285,19.21985815602837,0.6164383561643836
311.277,35.48275862068965,19.285714285714285,19.243498817966902,0.7045009784735812
311.483,35.948275862068954,19.285714285714285,19.21985815602837,0.7045009784735812
311.689,35.258620689655174,19.285714285714285,19.1725768321513,0.5283757338551859
311.895,34.103448275862064,19.523809523809526,19.243498817966902,0.44031311154598823
312.102,33.56896551724137,19.523809523809526,19.243498817966902,-0.08806262230919765
312.307,34.01724137931035,19.523809523809526,19.243498817966902,0.3522504892367906
312.514,33.87931034482759,19.523809523809526,19.50354609929078,0.5283757338551859
312.719,34.63793103448276,19.285714285714285,19.59810874704492,0.5283757338551859
312.926,37.241379310344826,19.047619047619047,19.574468085106382,0.6164383561643836
313.132,41.06896551724137,18.571428571428573,19.527186761229313,0.26418786692759294
313.339,66.12068965517241,15.238095238095237,19.574468085106382,0.3522504892367906
313.544,94.3103448275862,11.428571428571429,15.721040189125295,0.1761252446183953
313.751,129.68965517241378,6.666666666666667,11.394799054373522,0.3522504892367906
313.956,172.36206896551724,0.9523809523809523,6.40661938534279,0.44031311154598823
314.163,179.72413793103448,0.0,1.1820330969267125,0.5283757338551859
314.369,181.32758620689654,0.0,0.07092198581560183,0.44031311154598823
